"Storage 105444 AM - RawData - C:\WINDOWS\Desktop\Dylan Grassie\Experiments\Cc\06-10-15\Trial 1\Cc_pH7_HEPESbuffer.spc"
"Wavelength nm.","Abs."
200.0,2.54968
201.0,2.57083
202.0,2.58681
203.0,2.59341
204.0,2.61902
205.0,2.63715
206.0,2.65796
207.0,2.67445
208.0,2.69379
209.0,2.71997
210.0,2.72856
211.0,2.73207
212.0,2.73924
213.0,2.74832
214.0,2.75578
215.0,2.75955
216.0,2.76144
217.0,2.77318
218.0,2.78503
219.0,2.78105
220.0,2.75623
221.0,2.68512
222.0,2.53548
223.0,2.32465
224.0,2.07758
225.0,1.82651
226.0,1.60434
227.0,1.40431
228.0,1.22722
229.0,1.07054
230.0,0.93437
231.0,0.81638
232.0,0.71385
233.0,0.62978
234.0,0.55843
235.0,0.49995
236.0,0.45303
237.0,0.41405
238.0,0.38371
239.0,0.36119
240.0,0.34454
241.0,0.33191
242.0,0.32274
243.0,0.31725
244.0,0.31456
245.0,0.31438
246.0,0.31673
247.0,0.32091
248.0,0.32553
249.0,0.33148
250.0,0.33904
251.0,0.34770
252.0,0.35762
253.0,0.36743
254.0,0.37712
255.0,0.38727
256.0,0.39806
257.0,0.40900
258.0,0.41869
259.0,0.42767
260.0,0.43628
261.0,0.44321
262.0,0.44888
263.0,0.45369
264.0,0.45743
265.0,0.45891
266.0,0.45818
267.0,0.45657
268.0,0.45404
269.0,0.44983
270.0,0.44324
271.0,0.43459
272.0,0.42487
273.0,0.41484
274.0,0.40442
275.0,0.39265
276.0,0.37920
277.0,0.36526
278.0,0.35152
279.0,0.33778
280.0,0.32365
281.0,0.30922
282.0,0.29501
283.0,0.28227
284.0,0.26888
285.0,0.25426
286.0,0.24132
287.0,0.22949
288.0,0.21780
289.0,0.20753
290.0,0.19804
291.0,0.18840
292.0,0.17993
293.0,0.17207
294.0,0.16484
295.0,0.15907
296.0,0.15437
297.0,0.14992
298.0,0.14603
299.0,0.14426
300.0,0.14314
301.0,0.14203
302.0,0.14211
303.0,0.14182
304.0,0.14156
305.0,0.14188
306.0,0.14346
307.0,0.14497
308.0,0.14592
309.0,0.14714
310.0,0.14810
311.0,0.14915
312.0,0.15025
313.0,0.15013
314.0,0.15031
315.0,0.15068
316.0,0.14922
317.0,0.14777
318.0,0.14630
319.0,0.14461
320.0,0.14374
321.0,0.14212
322.0,0.13995
323.0,0.13861
324.0,0.13724
325.0,0.13530
326.0,0.13316
327.0,0.13185
328.0,0.13029
329.0,0.12897
330.0,0.12843
331.0,0.12709
332.0,0.12563
333.0,0.12531
334.0,0.12399
335.0,0.12209
336.0,0.12138
337.0,0.12196
338.0,0.12239
339.0,0.12199
340.0,0.12114
341.0,0.11993
342.0,0.11897
343.0,0.11867
344.0,0.11819
345.0,0.11681
346.0,0.11581
347.0,0.11568
348.0,0.11501
349.0,0.11404
350.0,0.11394
351.0,0.11371
352.0,0.11240
353.0,0.11055
354.0,0.10959
355.0,0.10941
356.0,0.10898
357.0,0.10738
358.0,0.10649
359.0,0.10666
360.0,0.10881
361.0,0.11104
362.0,0.11017
363.0,0.11003
364.0,0.11162
365.0,0.11568
366.0,0.11880
367.0,0.11890
368.0,0.11780
369.0,0.11671
370.0,0.11774
371.0,0.11913
372.0,0.11928
373.0,0.11978
374.0,0.12070
375.0,0.12076
376.0,0.12144
377.0,0.12204
378.0,0.12256
379.0,0.12482
380.0,0.12726
381.0,0.12920
382.0,0.13110
383.0,0.13167
384.0,0.13361
385.0,0.13622
386.0,0.13869
387.0,0.14160
388.0,0.14413
389.0,0.14751
390.0,0.15096
391.0,0.15421
392.0,0.15735
393.0,0.16075
394.0,0.16444
395.0,0.16899
396.0,0.17398
397.0,0.17973
398.0,0.18492
399.0,0.19023
400.0,0.19728
401.0,0.20512
402.0,0.21405
403.0,0.22415
404.0,0.23483
405.0,0.24586
406.0,0.25795
407.0,0.27045
408.0,0.28278
409.0,0.29486
410.0,0.30606
411.0,0.31586
412.0,0.32405
413.0,0.32973
414.0,0.33263
415.0,0.33174
416.0,0.32631
417.0,0.31548
418.0,0.30075
419.0,0.28566
420.0,0.26949
421.0,0.25221
422.0,0.23540
423.0,0.21857
424.0,0.20198
425.0,0.18690
426.0,0.17342
427.0,0.16122
428.0,0.15117
429.0,0.14255
430.0,0.13484
431.0,0.12865
432.0,0.12320
433.0,0.11856
434.0,0.11465
435.0,0.11111
436.0,0.10767
437.0,0.10420
438.0,0.10118
439.0,0.09871
440.0,0.09631
441.0,0.09413
442.0,0.09200
443.0,0.08997
444.0,0.08876
445.0,0.08775
446.0,0.08665
447.0,0.08568
448.0,0.08496
449.0,0.08479
450.0,0.08456
451.0,0.08371
452.0,0.08302
453.0,0.08278
454.0,0.08266
455.0,0.08237
456.0,0.08211
457.0,0.08182
458.0,0.08145
459.0,0.08145
460.0,0.08151
461.0,0.08145
462.0,0.08173
463.0,0.08217
464.0,0.08192
465.0,0.08142
466.0,0.08118
467.0,0.08127
468.0,0.08148
469.0,0.08148
470.0,0.08115
471.0,0.08093
472.0,0.08112
473.0,0.08130
474.0,0.08122
475.0,0.08110
476.0,0.08083
477.0,0.08051
478.0,0.08029
479.0,0.08022
480.0,0.08038
481.0,0.08031
482.0,0.08026
483.0,0.08009
484.0,0.07983
485.0,0.07983
486.0,0.07973
487.0,0.07977
488.0,0.07988
489.0,0.08015
490.0,0.08057
491.0,0.08060
492.0,0.08072
493.0,0.08105
494.0,0.08130
495.0,0.08162
496.0,0.08173
497.0,0.08180
498.0,0.08214
499.0,0.08273
500.0,0.08328
501.0,0.08376
502.0,0.08461
503.0,0.08559
504.0,0.08652
505.0,0.08752
506.0,0.08876
507.0,0.08981
508.0,0.09088
509.0,0.09216
510.0,0.09288
511.0,0.09367
512.0,0.09470
513.0,0.09557
514.0,0.09628
515.0,0.09718
516.0,0.09845
517.0,0.09956
518.0,0.10066
519.0,0.10175
520.0,0.10205
521.0,0.10123
522.0,0.09941
523.0,0.09726
524.0,0.09526
525.0,0.09384
526.0,0.09296
527.0,0.09193
528.0,0.09096
529.0,0.09019
530.0,0.08934
531.0,0.08826
532.0,0.08742
533.0,0.08673
534.0,0.08617
535.0,0.08611
536.0,0.08665
537.0,0.08757
538.0,0.08842
539.0,0.08914
540.0,0.09001
541.0,0.09073
542.0,0.09218
543.0,0.09471
544.0,0.09821
545.0,0.10345
546.0,0.10982
547.0,0.11578
548.0,0.12036
549.0,0.12291
550.0,0.12218
551.0,0.11775
552.0,0.11053
553.0,0.10254
554.0,0.09544
555.0,0.08992
556.0,0.08618
557.0,0.08336
558.0,0.08095
559.0,0.07924
560.0,0.07803
561.0,0.07709
562.0,0.07645
563.0,0.07584
564.0,0.07527
565.0,0.07489
566.0,0.07469
567.0,0.07445
568.0,0.07428
569.0,0.07410
570.0,0.07372
571.0,0.07341
572.0,0.07318
573.0,0.07330
574.0,0.07347
575.0,0.07329
576.0,0.07317
577.0,0.07312
578.0,0.07288
579.0,0.07272
580.0,0.07272
581.0,0.07265
582.0,0.07263
583.0,0.07256
584.0,0.07262
585.0,0.07272
586.0,0.07260
587.0,0.07253
588.0,0.07253
589.0,0.07249
590.0,0.07231
591.0,0.07214
592.0,0.07222
593.0,0.07210
594.0,0.07216
595.0,0.07234
596.0,0.07217
597.0,0.07210
598.0,0.07202
599.0,0.07205
600.0,0.07219
601.0,0.07233
602.0,0.07245
603.0,0.07230
604.0,0.07220
605.0,0.07225
606.0,0.07225
607.0,0.07220
608.0,0.07204
609.0,0.07195
610.0,0.07210
611.0,0.07228
612.0,0.07225
613.0,0.07213
614.0,0.07201
615.0,0.07208
616.0,0.07208
617.0,0.07201
618.0,0.07211
619.0,0.07184
620.0,0.07162
621.0,0.07153
622.0,0.07153
623.0,0.07167
624.0,0.07147
625.0,0.07153
626.0,0.07158
627.0,0.07137
628.0,0.07135
629.0,0.07144
630.0,0.07149
631.0,0.07143
632.0,0.07137
633.0,0.07143
634.0,0.07146
635.0,0.07153
636.0,0.07147
637.0,0.07140
638.0,0.07124
639.0,0.07123
640.0,0.07149
641.0,0.07150
642.0,0.07130
643.0,0.07109
644.0,0.07103
645.0,0.07097
646.0,0.07098
647.0,0.07100
648.0,0.07086
649.0,0.07079
650.0,0.07077
651.0,0.07083
652.0,0.07089
653.0,0.07097
654.0,0.07111
655.0,0.07108
656.0,0.07097
657.0,0.07097
658.0,0.07106
659.0,0.07106
660.0,0.07111
661.0,0.07115
662.0,0.07092
663.0,0.07074
664.0,0.07077
665.0,0.07088
666.0,0.07092
667.0,0.07091
668.0,0.07086
669.0,0.07074
670.0,0.07072
671.0,0.07076
672.0,0.07063
673.0,0.07054
674.0,0.07053
675.0,0.07053
676.0,0.07040
677.0,0.07047
678.0,0.07048
679.0,0.07050
680.0,0.07069
681.0,0.07065
682.0,0.07072
683.0,0.07069
684.0,0.07065
685.0,0.07059
686.0,0.07056
687.0,0.07056
688.0,0.07063
689.0,0.07066
690.0,0.07056
691.0,0.07076
692.0,0.07068
693.0,0.07047
694.0,0.07053
695.0,0.07053
696.0,0.07050
697.0,0.07063
698.0,0.07091
699.0,0.07101
700.0,0.07101
701.0,0.07094
702.0,0.07097
703.0,0.07092
704.0,0.07062
705.0,0.07085
706.0,0.07115
707.0,0.07133
708.0,0.07158
709.0,0.07169
710.0,0.07178
711.0,0.07184
712.0,0.07219
713.0,0.07222
714.0,0.07205
715.0,0.07225
716.0,0.07253
717.0,0.07291
718.0,0.07307
719.0,0.07309
720.0,0.07332
721.0,0.07378
722.0,0.07411
723.0,0.07410
724.0,0.07419
725.0,0.07460
726.0,0.07510
727.0,0.07561
728.0,0.07573
729.0,0.07600
730.0,0.07677
731.0,0.07738
732.0,0.07774
733.0,0.07806
734.0,0.07846
735.0,0.07874
736.0,0.07901
737.0,0.07939
738.0,0.07990
739.0,0.07996
740.0,0.07983
741.0,0.07980
742.0,0.07967
743.0,0.07968
744.0,0.07983
745.0,0.07974
746.0,0.07968
747.0,0.07973
748.0,0.07959
749.0,0.07974
750.0,0.07967
751.0,0.07965
752.0,0.07993
753.0,0.07977
754.0,0.07982
755.0,0.07997
756.0,0.07968
757.0,0.07944
758.0,0.07953
759.0,0.07950
760.0,0.07988
761.0,0.08057
762.0,0.08043
763.0,0.08032
764.0,0.08047
765.0,0.08031
766.0,0.08017
767.0,0.08014
768.0,0.08000
769.0,0.07985
770.0,0.07971
771.0,0.07968
772.0,0.07996
773.0,0.08009
774.0,0.07979
775.0,0.07954
776.0,0.07948
777.0,0.07965
778.0,0.07979
779.0,0.07980
780.0,0.07970
781.0,0.07957
782.0,0.07947
783.0,0.07942
784.0,0.07933
785.0,0.07881
786.0,0.07860
787.0,0.07864
788.0,0.07845
789.0,0.07846
790.0,0.07848
791.0,0.07835
792.0,0.07817
793.0,0.07809
794.0,0.07799
795.0,0.07784
796.0,0.07774
797.0,0.07758
798.0,0.07779
799.0,0.07803
800.0,0.07791
